8414014
8397898
8406754
8395672
8415746
8399476
8408776
8397831
8415132
8398701
8407497
8396388
8416642
8400637
8410268
8398588
8414790
8398812
8408170
8397010
8416565
8399988
8409696
8398317
8416139
8400150
8409150
8397634
8415089
8398965
8408367
8396781
8415242
8398828
8407778
8396663
8749983
8422390
8451654
8410909
8750069
8422836
8451671
8410712
8757890
8424415
8453889
8412972
8752764
8422965
8452566
8411796
8749037
8422212
8451501
8410764
8757159
8424286
8453462
8412641
8756526
8423816
8453923
8412998
8760842
8425078
8455048
8414169
8759272
8424849
8455289
8414169
8750359
8422341
8451953
8410875
8751485
8422426
8451715
8410721
8752654
8423229
8452311
8411386
8745350
8421147
8449845
8408733
8753780
8423244
8451885
8411045
8754199
8423799
8451893
8411172
8742868
8420532
8449222
8407863
8747526
8422050
8450203
8408981
8743500
8421019
8448959
8407896
8742432
8420856
8448515
8407512
8743585
8420908
8448274
8407684
8748174
8422382
8450631
8409542
8743227
8421300
8449588
8408025
8741444
8420556
8448224
8407455
8751262
8422929
8451449
8410166
8747312
8421880
8450212
8409553
8749863
8422187
8451099
8409723
8751135
8422878
8451192
8409944
8752203
8422800
8452321
8411368
8753310
8423244
8452619
8411650
8755223
8423654
8453266
8412308
8754113
8422939
8452678
8412000
8755725
8423757
8453727
8412828
8755187
8423697
8453436
8412965
8753352
8422665
8452909
8411940
8759881
8424439
8454725
8413973
8761858
8424832
8455604
8414807
8756605
8424543
8453061
8412555
8747501
8422382
8451542
8410107
8745923
8421546
8451117
8409790
8758209
8424227
8453530
8412445
8756603
8424276
8453266
8412529
8749736
8422187
8451817
8410635
8757961
8423723
8453625
8412494
8757840
8424397
8454111
8412786
8752637
8422946
8452864
8411352
8750820
8456508
8515587
8433389
8752475
8457352
8514999
8433336
8757355
8458872
8517464
8435573
8746025
8454870
8512166
8430787
8750939
8456415
8514930
8432058
8749122
8456422
8513839
8432006
8751006
8456543
8513436
8431622
8746571
8455341
8511636
8429909
8743116
8452804
8509061
8426965
8747169
8455084
8511135
8428166
8747262
8455212
8511330
8428730
8745170
8453583
8510374
8427476
8747783
8455101
8511749
8429943
8751664
8457386
8514026
8432040
8744420
8453718
8510750
8428534
8746733
8454886
8511681
8429200
8749326
8455519
8513206
8430632
8753285
8458530
8516211
8434258
8757346
8459811
8518854
8437527
8751468
8456995
8516269
8434020
8756560
8458505
8517514
8436973
8757856
8458998
8518727
8437851
8755050
8458343
8518071
8435939
8759189
8459870
8519733
8437945
8755426
8459213
8519272
8437433
8758932
8459938
8520177
8438781
8757679
8458027
8519836
8437561
8756509
8458488
8517643
8434864
8748551
8455800
8513572
8431084
8753386
8457754
8516004
8434695
8754692
8458632
8517849
8435641
8752508
8457899
8516004
8435027
8753856
8456884
8515944
8433679
8755366
8458700
8517874
8437185
8749045
8455621
8514700
8432696
8755604
8457617
8517609
8436137
8758447
8459972
8518402
8437255
8768915
8466540
8522498
8443985
8799566
8482289
8532906
8462087
8901198
8533819
8571440
8525602
9285541
8727513
8717105
8775312
10719404
9469892
9261474
9722562
15899426
12423907
11318470
13634012
15953847
16224469
16044440
15931998
16342062
15950512
16042557
16112256
16276020
16431385
16392796
16520552
16278045
15816084
16397104
16523769
16282752
15883901
16400895
16524477
16297239
15955001
16405885
16525169
16300976
16026184
16407470
16524887
16291812
16055744
16405757
16523598
16292555
15977035
16398888
16523437
16292734
15907540
16393394
16523232
16293664
15850302
16390017
16523001
16291624
16369713
16387440
16520774
16290482
16394589
16390552
16520586
16291737
15802231
16396150
16523709
16290482
15827875
16396825
16523871
16290833
15833438
16397814
16523821
16291301
15841728
16399120
16523854
16291428
15846005
16399231
16523640
16291251
15843513
16398888
16523930
16292078
15835383
16397796
16523862
16303952
16310282
16357836
16520033
16306401
16293416
16359730
16520492
16307928
16283821
16360420
16520529
16309771
16259734
16359593
16520647
16311205
16240975
16358895
16520826
16312511
16227836
16359202
16520759
16313415
16221260
16359662
16520877
16313500
16218283
16359535
16521116
16313960
16215033
16358305
16521226
16316748
16282018
16372604
16522882
16317997
16277002
16372638
16523087
16319386
16272917
16373892
16523308
16321092
16271568
16375094
16523207
16322253
16267618
16375539
16523283
16323455
16270928
16376683
16523667
16324002
16278965
16377586
16523530
16324316
16281634
16378005
16523829
16325939
16279545
16378713
16524008
16337694
16178169
16362819
16525756
16338411
16167282
16360687
16525927
16337814
16158546
16357181
16525749
16337687
16148172
16352035
16525519
16337233
16145503
16349202
16525680
16336279
16144572
16347548
16525620
16335306
16150536
16348964
16525372
16334547
16150861
16348231
16525219
16333719
16152412
16348991
16525203
16315060
16169313
16349568
16523470
16314148
16164782
16347487
16523207
16313559
16166967
16348170
16523165
16312297
16171361
16348657
16523241
16312024
16175684
16349373
16522924
16311069
16177427
16350542
16522847
16310786
16171726
16348503
16522745
16310155
16169210
16347966
16522788
16310659
16162538
16346192
16522967
16305778
16384480
16448438
16538068
16306008
16381229
16448250
16538213
16306470
16375930
16446612
16538247
16306701
16373252
16445683
16537896
16306973
16373885
16446126
16538111
16306758
16374941
16445153
16537991
16305967
16378653
16444259
16538058
16305854
16376016
16442305
16537889
16306077
16374651
16441239
16537889
16317347
16356411
16440248
16538450
16318336
16354587
16440129
16538418
16319147
16353187
16440042
16538554
16319839
16352471
16440016
16538664
16320060
16353297
16440248
16538485
16320147
16356274
16441067
16538612
16319507
16360054
16441672
16538418
16319421
16361539
16442143
16538571
16319463
16363033
16442286
16538382
16317561
16390469
16449452
16538597
16317673
16392234
16449855
16538382
16317613
16395450
16451160
16538409
16317756
16396773
16451278
16538461
16317295
16399502
16451689
16538322
16317169
16402786
16452277
16538340
16317509
16403667
16452472
16538477
16317286
16404391
16452542
16538299
16317945
16402881
16451978
16538333
16327269
16430805
16459897
16538962
16327576
16430812
16459955
16539161
16328130
16429190
16459546
16539185
16328982
16427221
16459400
16539168
16329588
16424268
16459298
16539218
16330050
16422136
16459042
16539150
16330578
16422664
16459094
16539134
16330682
16423390
16459264
16539263
16331159
16423050
16459332
16539270
16332062
16415064
16457635
16539380
16331432
16417810
16458248
16539297
16331015
16418527
16458130
16539083
16330194
16420932
16457968
16538997
16329580
16422622
16458019
16539048
16329350
16419944
16457652
16538894
16328454
16420397
16457550
16538852
16327815
16419474
16457002
16538852
16327201
16416266
16456449
16538912
16311955
16406268
16449463
16537998
16311366
16407530
16449795
16537811
16310497
16407899
16449742
16537880
16310172
16410798
16450725
16537632
16310139
16412632
16451707
16537752
16309200
16412606
16451296
16537836
16308892
16412496
16451067
16537693
16308543
16413024
16451331
16537564
16308552
16412854
16451638
16537641
16307153
16493655
16506955
16545293
16307459
16492451
16506561
16545473
16307331
16492246
16506740
16545420
16307213
16492894
16506597
16545413
16306513
16492265
16506161
16545294
16306776
16491376
16505982
16545266
16306947
16490488
16505776
16545344
16306436
16490421
16505283
16545284
16305787
16491742
16505223
16545318
16309525
16388951
16512235
16548484
16308655
16399792
16513797
16548468
16308210
16400842
16513684
16548477
16309959
16396279
16513114
16548612
16312092
16384616
16511100
16548655
16309650
16496665
16504266
16545242
16311069
16489141
16501844
16545242
16311988
16485047
16500113
16545397
16311453
16485643
16498935
16545454
16289944
16456014
16517822
16548441
16287779
16479824
16519622
16548391
16283656
16501605
16521355
16548432
16281686
16511040
16522200
16548451
16276850
16518975
16522917
16548417
16274223
16522924
16523027
16548297
16269377
16527530
16523452
16548305
16263259
16531770
16524102
16548108
16266603
16532907
16525006
16548432
16475645
16536617
16530663
16551975
16478367
16535227
16530151
16552077
16478878
16533931
16529827
16551616
16476559
16531540
16529066
16551727
16476796
16534296
16529800
16551837
16477852
16536439
16530166
16551735
16477990
16537369
16530399
16551854
16478615
16539210
16530704
16551888
16479330
16540566
16531037
16551990
16474500
16537094
16530884
16551802
16473938
16537165
16530791
16551778
16473212
16537505
16530602
16551761
16472938
16537948
16530747
16551701
16472650
16537889
16530551
16551530
16472027
16538058
16530568
16551580
16470877
16538084
16530595
16551504
16471063
16538793
16530456
16551614
16471217
16539383
16530297
16551504
16296565
16544807
16525637
16539918
15980652
16547895
16532480
16545601
16182681
16547231
16534323
16546812
16252296
16545797
16536062
16547529
16294202
16542693
16537998
16548202
16296256
16540951
16538793
16548372
16295551
16543714
16539254
16548484
16294124
16547648
16539288
16548432
16283351
16548417
16538664
16548040
16246111
16545882
15870138
16542434
16250359
16546037
15862860
16542385
16254763
16546052
15855637
16542471
16259097
16546011
15850808
16542513
16263036
16546037
15846762
16542495
16265265
16546215
15840587
16542725
16265785
16546368
15841373
16542649
16266629
16546290
15843300
16542786
16267943
16546421
15843761
16542667
16247621
16547487
15900528
16542607
16247971
16547460
15902839
16542700
16249796
16547537
15903428
16542819
16250019
16547563
15906491
16542785
16250087
16547588
15910169
16542632
16250308
16547606
15913290
16542760
16250274
16547563
15916797
16542693
16249841
16547580
15920566
16542581
16252014
16547657
15921922
16542759
16265220
16547904
15871633
16542939
16264682
16548033
15869354
16543017
16264760
16548014
15868390
16542965
16265035
16547991
15871418
16543093
16266459
16547921
15876366
16543032
16264862
16547826
15884812
16543058
16263514
16547955
15896628
16542998
16261945
16547931
15911686
16542870
16260246
16547980
15923356
16542862
16213700
16547152
16032471
16542018
16213087
16547197
16045002
16541914
16210793
16547033
16056539
16541975
16209724
16547118
16064123
16541813
16209861
16546830
16068780
16542000
16211858
16546761
16076312
16542000
16213828
16546880
16085349
16542144
16215474
16546914
16094826
16542180
16215474
16546795
16104339
16541932
16203104
16546666
16146407
16541752
16202166
16546897
16145519
16541667
16201177
16546812
16143786
16541847
16199880
16546863
16141869
16541763
16199395
16546820
16142679
16541854
16199181
16546914
16144170
16541805
16198431
16546923
16146407
16541857
16197772
16547024
16151644
16541847
16198473
16546931
16155798
16541889
16186860
15554286
13617189
16538759
16184559
15553955
13620721
16538740
16182639
15556301
13624108
16538845
16181641
15560130
13626549
16538869
16182613
15565478
13627905
16538954
16183689
15570709
13628706
16538732
16184097
15576348
13629527
16539083
16182288
15581109
13629670
16538743
16182886
15583370
13628706
16538997
16195810
15608051
13636478
16538834
16199181
15610695
13637041
16538834
16202072
15612931
13640180
16538905
16206125
15616573
13643388
16538998
16208413
15620447
13646886
16538980
16209742
15619320
13650478
16538929
16210536
15618595
13654804
16538845
16212446
15623911
13657687
16538912
16215228
15624525
13660016
16538819
16224699
15670347
13712004
16539134
16223837
15673435
13713506
16538954
16223896
15677803
13714591
16539048
16223853
15683331
13713985
16539032
16220851
15681102
13714410
16538997
16215339
15679208
13714982
16538912
16212337
15679201
13713251
16539007
16212593
15680028
13710931
16538819
16212600
15679660
13708449
16539041
16175966
15693080
13720051
16538435
16174203
15697364
13719470
16538486
16172769
15698517
13718063
16538409
16171037
15699642
13716111
16538529
16167674
15698320
13714471
16538367
16166522
15697832
13710675
16538349
16166259
15697364
13707297
16538382
16165577
15696453
13702093
16538299
16162932
15696280
13697417
16538358
16143729
15699334
13705829
16538163
16144042
15702073
13706341
16538187
16144837
15704078
13706563
16538152
16142840
15702764
13706016
16538101
16139504
15700221
13705248
16538152
16136988
15699778
13703500
16538178
16135580
15702542
13705027
16538204
16133841
15704300
13706999
16538043
16134794
15709060
13709472
16538033
16127108
15732068
13797940
16537862
16124002
15727771
13800312
16537896
16121675
15726217
13800858
16537709
16122783
15726447
13800867
16537931
16127168
15729578
13800005
16537871
16129489
15734270
13800235
16537820
16130897
15739490
13801140
16537914
16132799
15745370
13803179
16538009
16136153
15748647
13803622
16537931
16142593
12048915
13817871
13444038
16140844
12048242
13819652
13445472
16140128
12048599
13820651
13446497
16138635
12046911
13822153
13447845
16137388
12045477
13822135
13448696
16135349
12046741
13822212
13449859
16134250
12046263
13821426
13449576
16130716
12045118
13821428
13450788
16131570
12045716
13821308
13452554
16125906
12049445
13822187
13473582
16125855
12049709
13822657
13474248
16128380
12050944
13822819
13475144
16130445
12049649
13822725
13475715
16132192
12049820
13823587
13477337
16132953
12049871
13824159
13478146
16136484
12051184
13823832
13478795
16137840
12049155
13824125
13479999
16139522
12049539
13825071
13482412
16162241
12052788
13825914
13493929
16161319
12051987
13825496
13494382
16163913
12054188
13824114
13494041
16163461
12053677
13823832
13493913
16162386
12054445
13824209
13494245
16163581
12054238
13823775
13493393
16164058
12054155
13823518
13492990
16163803
12054513
13823799
13493521
16162342
12055578
13823493
13493152
16132663
12056261
13817315
13491378
16130871
12057583
13816241
13491506
16132271
12058052
13815942
13491608
16127860
12057285
13816590
13492350
16122604
12057864
13817606
13492651
16121120
12059596
13817332
13491311
16119182
12060194
13817998
13491482
16116207
12060553
13819755
13491574
16111643
12060271
13821077
13492087
16085673
12060082
13832963
13500387
16084946
12061030
13833721
13500924
16085894
12062752
13834054
13501301
16085338
12063547
13833858
13501539
16082951
12063759
13834635
13501881
16082140
12062949
13835393
13501940
16084598
12064074
13835196
13501959
16085059
12064903
13835300
13501864
16085160
12065628
13835102
13501974
16098631
12064025
13829138
13508527
16099809
12064647
13829736
13509362
16101149
12064740
13829702
13509891
16103931
12064978
13829250
13510104
16105157
12064903
13829378
13510488
16107497
12064714
13829225
13511366
16109448
12064860
13829660
13512067
16110575
12065312
13829951
13512477
16113484
12064288
13829653
13511957
16126145
12067411
13831469
13517022
16126443
12067965
13831212
13517194
16124541
12066601
13832570
13517775
16124397
12066567
13831988
13517560
16123806
12065696
13832424
13517733
16124763
12065655
13832184
13518057
16125070
12065584
13832586
13518475
16124055
12064620
13832672
13518414
16123892
12065141
13832783
13518653
16143574
12075634
13827315
13518994
16145466
12076846
13827058
13519405
16147901
12076455
13826282
13518798
16150733
12076906
13825496
13518791
16153531
12076473
13825155
13518798
16154033
12075976
13825188
13518730
16155015
12075661
13824619
13518260
16157650
12075643
13823271
13518252
16160219
12075480
13822879
13518312
16173868
12080370
13824969
13518840
16172537
12079798
13824807
13518354
16172273
12079167
13824864
13518466
16170958
12079433
13824473
13518791
16170217
12079867
13824797
13519473
16169663
12079678
13824525
13519209
16167847
12080104
13825198
13520512
16166540
12081053
13824123
13520530
16163836
12080703
13824900
13521672
16118945
12082239
13825319
13521510
16116300
12082929
13825181
13520794
16114363
12083245
13824670
13520718
16112947
12084175
13824183
13520820
16113911
12084286
13822682
13519737
16111888
12083153
13823004
13520283
16111387
12084729
13821897
13520572
16108903
12083953
13822365
13521186
16108981
12085086
13822289
13520922
16093811
12085183
13823038
13518594
16093949
12084345
13822468
13517945
16095466
12084533
13821922
13517586
16094375
12085549
13821948
13519021
16094221
12085300
13821231
13518780
16092394
12083296
13821513
13518296
16093667
12084720
13821395
13518773
16091686
12085967
13821531
13519830
16091994
12086042
13820839
13519276
16082713
12086946
13832586
13511393
16084223
12085582
13833626
13511692
16084776
12084916
13834601
13511564
16087039
12085225
13835555
13511938
16089596
12084328
13836263
13512076
16089102
12083015
13836816
13511896
16089947
12083834
13837474
13511821
16090775
12084660
13837048
13511522
16090705
12085454
13837133
13511776
16105739
12091904
13830197
13511606
16106063
12092731
13829473
13512110
16105807
12093303
13828347
13512160
16107648
12092886
13828193
13512273
16110227
12092236
13827860
13511641
16112716
12092108
13827758
13512391
16115838
12092236
13827058
13512819
16117476
12091510
13826230
13512673
16117988
12091087
13825530
13512638
16145476
12095087
13822024
13511138
16148760
12095632
13822042
13511912
16150459
12094753
13822341
13512051
16151721
12094446
13822511
13512127
16152763
12095872
13823218
13512963
16153649
12095342
13822810
13512477
16154646
12096161
13822955
13512759
16155323
12096751
13823193
13513210
16155568
12097294
13823057
13513261
16155271
12097500
13827365
13511377
16155441
12098618
13825820
13511641
16153632
12098558
13825659
13512043
16153445
12099104
13824739
13511675
16152950
12099190
13824549
13512093
16151200
12100478
13823731
13512460
16149999
12099685
13822562
13512196
16149094
12100675
13823297
13513176
16147302
12099403
13822657
13512349
16106249
12098065
13816625
13513132
16103921
12097550
13816948
13513851
16104150
12098593
13815721
13513867
16101081
12098490
13816309
13515105
16098341
12098600
13816292
13514891
16096131
12099139
13815984
13514848
16095014
12099308
13815797
13514635
16093531
12100094
13816214
13514875
16092387
12101330
13815747
13514746
16078702
12101203
13819268
13511598
16079223
12102399
13818790
13512247
16079019
12103584
13818884
13512296
16077457
12102245
13819302
13511836
16078531
12103771
13818790
13511845
16077396
12103472
13819073
13511776
16077500
12102167
13820104
13511377
16077645
12102576
13820352
13511426
16078191
12102260
13819431
13510694
16095747
12106398
13817077
13513346
16097676
12107234
13817716
13514106
16099254
12106595
13816710
13513527
16101600
12107183
13816805
13514081
16102188
12107533
13817034
13514226
16104919
12107465
13816266
13513731
16107589
12107859
13816455
13514081
16109824
12108428
13816625
13514404
16111403
12108924
13817588
13515078
16127263
12115834
13816052
13514081
16128030
12115688
13816445
13513824
16129590
12117370
13816700
13513680
16129899
12117235
13816940
13513262
16130666
12117405
13816079
13512587
16132210
12118102
13816214
13512742
16131929
12117250
13816710
13512391
16132492
12117046
13817665
13512826
16132407
12116106
13818929
13512989
16148564
12114981
13823500
13515633
16150680
12114384
13823083
13515481
16153095
12115356
13823381
13516666
16154827
12115492
13822672
13516418
16156593
12115168
13822861
13517007
16158664
12114734
13822691
13517118
16161481
12114742
13821324
13516795
16163521
12115989
13820914
13517775
16165303
12115025
13820361
13517586
16178127
12117097
13815345
13520130
16178406
12118087
13815668
13520779
16177254
12117865
13815744
13520667
16175883
12117642
13815627
13520779
16176120
12118489
13815822
13520915
16174448
12117710
13815917
13520640
16173868
12118403
13815754
13520301
16172495
12118274
13816002
13520419
16171044
12118590
13815867
13520351
16127688
12121457
13812212
13518125
16123816
12119792
13812513
13518243
16122016
12120357
13812870
13518038
16118508
12120271
13813801
13518689
16116897
12119605
13813176
13517800
16114721
12119161
13814193
13518057
16113218
12118231
13813989
13517153
16111854
12119332
13814176
13517886
16111455
12119895
13813007
13516648
16092036
12118259
13811789
13519523
16091927
12118991
13811104
13518815
16092198
12120160
13810636
13518133
16091670
12120041
13810574
13518295
16091934
12120952
13810781
13518407
16091739
12120952
13809806
13517040
16092786
12120304
13808963
13516444
16093531
12119732
13809338
13516623
16094740
12121994
13809048
13517100
16112469
12123121
13805080
13516732
16113877
12121968
13806199
13516827
16116565
12122846
13805439
13516768
16118100
12122164
13805200
13517007
16120865
12123400
13804920
13516743
16121231
12122846
13805467
13517118
16123244
12122984
13805433
13516810
16123004
12122446
13806446
13517724
16124473
12123717
13805841
13517220
16125768
12124774
13806301
13513594
16126656
12124297
13806592
13513466
16126434
12124074
13807249
13513740
16125983
12123649
13807547
13513867
16124796
12122624
13807829
13514046
16126460
12122967
13807700
13513459
16127339
12124212
13807334
13514310
16128209
12123769
13807632
13514652
16127417
12123035
13809082
13515523
16163555
12127778
13806626
13515540
16165405
12126830
13806975
13515685
16166728
12126875
13806191
13515643
16167811
12127411
13806429
13516035
16170065
12127956
13805584
13516128
16170976
12128059
13805542
13517050
16172094
12127369
13804706
13516017
16173033
12127214
13805031
13516324
16174550
12127590
13804492
13516342
16164441
12133903
13803990
13519747
16162121
12133494
13803888
13519514
16160585
12133834
13802804
13518969
16158144
12133476
13802368
13519284
16154382
12132837
13802368
13519678
16150398
12132522
13802454
13519812
16147404
12132598
13801746
13519413
16144112
12132385
13801898
13519336
16139949
12132045
13801610
13518788
15856548
12139414
13786748
13532038
15852812
12143416
13774854
13530947
15820776
12147077
13767202
13525870
15821518
12152500
13758662
13515181
15802792
12154694
13749994
13506231
15819744
12156604
13744416
13503229
15845850
12157996
13740543
13498314
15841260
12157263
13738162
13492583
15855406
12151469
13741993
13487105
15251495
12381080
14043445
14607812
15195590
12361236
14060080
14678876
15133951
12374793
14095366
14800336
16293520
12474573
14266016
15076970
16304294
12546543
14685532
15240789
16322610
12506139
14861455
15229946
15114987
12444194
14850271
15106235
15201614
12403389
14821674
15020683
15252819
12379767
14799783
14958506
15462344
14679485
15377153
15192263
15523248
14637186
15248032
15128790
15620002
14582467
15227760
15113980
15723119
14550287
15227958
15105483
15791055
14521307
15230866
15095399
15835273
14498784
15228855
15086757
15905074
14479902
15254883
15086493
15938236
14467806
15257970
15068568
15970902
14464565
15253270
15053818
16055711
14350665
15035723
14980722
16056810
14342961
15031978
14978871
16058167
14342039
15015128
14976354
16056896
14345877
14988631
14974641
16055865
14348573
14949206
14964972
16056197
14346858
14922513
14953875
16063441
14342405
14921447
14950077
16059992
14336902
14915723
14945700
16053101
14324772
14925483
14949898
16059890
14286030
14735098
14876787
16062594
14283353
14722966
14865961
16065453
14283240
14716263
14855015
16069496
14276066
14720861
14852695
16070342
14271296
14719972
14849554
16069966
14265094
14724777
14848685
16067441
14258824
14733886
14850142
16066484
14252649
14743066
14853257
16064420
14251855
14742069
14851772
15994439
14238487
14660518
14825905
15999311
14245166
14655136
14813764
16004173
14257905
14652901
14799740
16011014
14259840
14649640
14791901
16014258
14257801
14652091
14788428
16013865
14261981
14647132
14781679
16015136
14271425
14641894
14774369
16013268
14277030
14634593
14768268
16010366
14272790
14629235
14767185
16002270
14256633
14588122
14761230
16001954
14256437
14588310
14762850
16000044
14255820
14587491
14763738
16000583
14255173
14585238
14763295
16001121
14254704
14585017
14764209
15998952
14254166
14583992
14765087
15999387
14253116
14583318
14765129
15999582
14254644
14583933
14765564
15998840
14254250
14583439
14765120
15982460
14189099
14552427
14753090
15983017
14187120
14548231
14752648
15984610
14185840
14541935
14750259
15986282
14183596
14536780
14747563
15988817
14180901
14536618
14747921
15991163
14180491
14534829
14746650
15992119
14179526
14534818
14746548
15991290
14178902
14533045
14747170
15989909
14178152
14530194
14746948
15978810
14160101
14481353
14718335
15974536
14158086
14476253
14715221
15973827
14156612
14471234
14712278
15976148
14156237
14464743
14707791
15978051
14155194
14459805
14703250
15979382
14153618
14457475
14700437
15981907
14152816
14454744
14697733
15981054
14151032
14454080
14696991
15981249
14150460
14451612
14695198
16014196
14139763
14427564
14671772
16018206
14139344
14427019
14671371
16021038
14138568
14428315
14671772
16023531
14137869
14427768
14670483
16027164
14136162
14427846
14670911
16028523
14134942
14426643
14670065
16029946
14133177
14424647
14667932
16031439
14132664
14423461
14665501
16035721
14132486
14423666
14665313
16020937
14118920
14409862
14645324
16018626
14118265
14409819
14644948
16015163
14118323
14409273
14643559
16010606
14117948
14408496
14643363
16005300
14116925
14406184
14641672
16000104
14116438
14403883
14638986
15994728
14115884
14402227
14636656
15989253
14114485
14400980
14634924
15983868
14112956
14399556
14632604
15937006
14108351
14381871
14615277
15935838
14108494
14380481
14612938
15936528
14108215
14379321
14611071
15935820
14107744
14377359
14608734
15935865
14107609
14376248
14607018
15938960
14108052
14374602
14604835
15939780
14107925
14374577
14604715
15940489
14107616
14373887
14603572
15939932
14107480
14373715
14602164
