
16525451
16525936
16526114
16526637
16526875
16527070
16527148
16527532
16527677
16527787
16527651
16527582
16527266
16527225
16527378
16528155
16528257
16527951
16527787
16527394
16527156
16526619
16526482
16526234
16525979
16525798
16525425
16525066
16524928
16524819
16524648
16524588
16524520
16524477
16524495
16524427
16524596
16525246
16525655
16525764
16525519
16525492
16525689
16525357
16525475
16525655
16525696
16525791
16525801
16525952
16517678
16517661
16517867
16518036
16517864
16517721
16517721
16517465
16517208
16517421
16518437
16518744
16518760
16518360
16518026
16517773
16517738
16517668
16517830
16518070
16518045
16517969
16517875
16517807
16518062
16518019
16517992
16518045
16518316
16518447
16518334
16517976
16518250
16519427
16519957
16520127
16519973
16519419
16518975
16518820
16518624
16518497
16518267
16517950
16517541
16517182
16517064
16517021
16516952
16516602
12440457
12444884
12452137
12460609
12471586
12452461
12378769
12301261
12263341
12255312
12257726
12265951
12270368
12269483
12267110
12268723
12276009
12289318
12306347
12324185
12341988
12358037
12373384
12389211
12402723
12417336
12433053
12444587
12396724
12336878
12307122
12308946
12322008
12342184
12359103
12361296
12359181
12362114
12373095
12388613
12406425
12426192
12444681
12461008
12475332
12485485
12493743
12503981
12507290
12445856
13621822
13567648
13557693
13563400
13573227
13585889
13585930
13577076
13572024
13578057
13593337
13612941
13631855
13650068
13668300
13684602
13700711
13716638
13734656
13753220
13737198
13631086
13540280
13503784
13500695
13504919
13515591
13523704
13517688
13507238
13504995
13516000
13535134
13560047
13583483
13608708
13630575
13653472
13673162
13693049
13713823
13736073
13759969
13716826
13618887
13557454
13542747
13543795
13552240
13571010
13581077
13579686
13578441
13585879
13603165
13627623
13650776
13671976
13690454
13709285
13727524
13746395
13764984
13784086
13804245
13825685
13842227
13771349
13680048
13631616
13628016
13640658
13656970
13683946
13701306
13704796
13707100
13724649
13748009
13771706
13793998
13815183
13833080
13847193
13862387
13879799
13900793
13927828
13958754
13991592
14016434
14024308
14017681
14035570
14060669
14081615
14099461
14116088
14132451
14143167
14152516
14164212
14174571
14190643
14210957
14223744
14234519
14242855
14252707
14263202
14274300
14285536
14293946
14303444
14310695
14314893
14314166
14320531
14330915
14340766
14348899
14355364
14359578
14363769
14369884
14374584
14380335
14385703
14391784
14400307
14407021
14410853
14415654
14420911
14425295
14429937
14434953
14439047
14432803
14409366
14397602
14405766
14414171
14421524
14429218
14432810
14432982
14435004
14437923
14441461
14446698
14452620
14459037
14464565
14470809
14475604
14479374
14483418
14486942
14489672
14493203
14492027
14477745
14464044
14468779
14478546
14487888
14495422
14501795
14506010
14509447
14512732
14517500
14523123
14527192
14530289
14534408
14537668
14541637
14545679
14549680
14554169
14557460
14559977
14562051
14557905
14552411
14556436
14564501
14569763
14573731
14576928
14579207
14581621
14583167
14585631
14589103
14593190
14596286
14599434
14602541
14606028
14609817
14614441
14618657
14621421
14624099
14624636
14622230
14617392
14618058
14622980
14625123
14625156
14625439
14625233
14623432
14620020
14618409
14617554
14619074
14620261
14621027
14619245
14616899
14615012
14615908
14618819
14621557
14622016
14622043
14622716
14620943
14621343
14623884
14626683
14628884
14631657
14632578
14634992
14637032
14638046
14640248
14642151
14644285
14644923
14644616
14644643
14644735
14644787
14644334
14644779
14643883
14643796
14645701
14645385
14640598
14641374
14643028
14644369
14646349
14647354
14649369
14651331
14652524
14653872
14655314
14657746
14658802
14660741
14662507
14664503
14665501
14665681
14666925
14667020
14668505
14669042
14669850
14667951
14666046
14666506
14668530
14670260
14671702
14673162
14675193
14675739
14677565
14679279
14681523
14682529
14683143
14683503
14683126
14682920
14683699
14685123
14687502
14688756
14689671
14690941
14692195
14689533
14688688
14690846
14693116
14694867
14696230
14697348
14698629
14699943
14700905
14702432
14703815
14705170
14706510
14707561
14709003
14709240
14709138
14709335
14710435
14711108
14712201
14712849
14713370
14711014
14710205
14710570
14712475
14713753
14714392
14715536
14716321
14716553
14717028
14716825
14718173
14718112
14718402
14719154
14719659
14719931
14720357
14722096
14722232
14721602
14721919
14722345
14721175
14719870
14720784
14721551
14722558
14722924
14723369
14724777
14725372
14726244
14726731
14726985
14728043
14728828
14730124
14729638
14730466
14730620
14730270
14731131
14730816
14730689
14731483
14731660
14730475
14728965
14729110
14729578
14729937
14730910
14731823
14732361
14732770
14732889
14733238
14733768
14734066
14733905
14734229
14735448
14735917
14736250
14736857
14737957
14738391
14738947
14738536
14738366
14737095
14734409
14732865
14733562
14733725
14734041
14734851
14735117
14736235
14736933
14737675
14737418
14738212
14738212
14738017
14738093
14737521
14738341
14738247
14738265
14738589
14737598
14735825
14735652
14736993
14737053
14736198
14735517
14735117
14734305
14733348
14732829
14732386
14731396
14731028
14731157
14731073
14731174
14731660
14731576
14731122
14730381
14729571
14728497
14727752
14727763
14726934
14726901
14726592
14725723
14725255
14724050
14723873
14723701
14723445
14722804
14722601
14723026
14723274
14723000
14721331
14720348
14719513
14720357
14719231
14718387
14717371
14717004
14716636
14716568
14715895
14714580
14713906
14712859
14711416
14710834
14709829
14707995
14707714
14708686
14708378
14707185
14707364
14707705
14707849
14708166
14709249
14709557
14710529
14711391
14710769
14710570
14710461
14710220
14711766
14712832
14712167
14711733
14710912
14711074
14710069
14709956
14708363
14707995
14707056
14706024
14705342
14704326
14704251
14703235
14703328
14702576
14703389
14703610
14703908
14703644
14702655
14701571
14700300
14700113
14699088
14698219
14698482
14698584
14697579
14697016
14696538
14695829
14694994
14695146
14695471
14695617
14695112
14694405
14693926
14693749
14694088
14694198
14692673
14692936
14692656
14692552
14692537
14692631
14692910
14692665
14692613
14693005
14692008
14690752
14689840
14688304
14688561
14688116
14687751
14688169
14687902
14687973
14688033
14688237
14688868
14688409
14687973
14687487
14687442
14686862
14686836
14685831
14686488
14686497
14685686
14685013
14684943
14684415
14684875
14683398
14682316
14682290
14681557
14681028
14680490
14679493
14679090
14678511
14677170
14676123
14675500
14673690
14670543
14670339
14670381
14668855
14668657
14668529
14668299
14669024
14668426
14667805
14667632
14666686
14666253
14667335
14666883
14667215
14666799
14665662
14665297
14665602
14666807
14667224
14668249
14666754
14665647
14665628
14667138
14667830
14668410
14668539
14667925
14669357
14668888
14667941
14667737
14667899
14667496
14668213
14668683
14669375
14670015
14671174
14671165
14672445
14671908
14672572
14672190
14670926
14671148
14671191
14670441
14670312
14671746
14671404
14670714
14671352
14671055
14671788
14669843
14667188
14665782
14664750
14666499
14668163
14670339
14671198
14668376
14668870
14668392
14667796
14669239
14668573
14668178
14667702
14670143
14669552
14668742
14669221
14666645
14665373
14664288
14665015
14665757
14666380
14668470
14667267
14667062
14667533
14668445
14667915
14668973
14668205
14668094
14667737
14668419
14669383
14670594
14671702
14671225
14670098
14669408
14670133
14669528
14670075
14670107
14668290
14668283
14668674
14670372
14670611
14670568
14671337
14672753
14673615
14674210
14675064
14674911
14674921
14673743
14673077
14673528
14674066
14674356
14674604
14675848
14676812
14675584
14674604
14674032
14674561
14674374
14673955
14673931
14673453
14674380
14674093
14674552
14675294
14675584
14675381
14675423
14675159
14675148
14675543
14675652
14676113
14676977
14675901
14674894
14675261
14675064
14673852
14672915
14672361
14671472
14671088
14670305
14669672
14670320
14671080
14671088
14671362
14672180
14672693
14672855
14672530
14672232
14672130
14671457
14670432
14670791
14669408
14667917
14668367
14667564
14666567
14664929
14664152
14663948
14664264
14663693
14661730
14662404
14662276
14663778
14663112
14662695
14663727
14663419
14664246
14664171
14663361
14663854
14664195
14663573
14663249
14663249
14662567
14662567
14662224
14661705
14661636
14661132
14661994
14662164
14662668
14662959
14663206
14662462
14661269
14660323
14659204
14656901
14651979
14649753
14650306
14650153
14651858
14651399
14651100
14650408
14649259
14647584
14645674
14644624
14645693
14646168
14646816
14646860
14647960
14649078
14649948
14650212
14649802
14649538
14649437
14649198
14649523
14650126
14649931
14650853
14651646
14651961
14652099
14650912
14650273
14650434
14649301
14648917
14648047
14647670
14647227
14646929
14647200
14647953
14648097
14648345
14647689
14647459
14648037
14647560
14646809
14646202
14647091
14647704
14648156
14647106
14647218
14647449
14647125
14647091
14645852
14645393
14645436
14645487
14645246
14645178
14645324
14645930
14645862
14645845
14646469
14647166
14647500
14647381
14646826
14646665
14647313
14647602
14646330
14645664
14645290
14644831
14644718
14643806
14644497
14644232
14643830
14644334
14643849
14645154
14646083
14645904
14645376
14646032
14646006
14646476
14646338
14646544
14646826
14646792
14647628
14646493
14646733
14645794
14645947
14645197
14643874
14644701
14644711
14644232
14644599
14645358
14647628
14649753
14651381
14651348
14652201
14652312
14653319
14652728
14652686
14652916
14654214
14654392
14655529
14656542
14654520
14652799
14649591
14646741
14645280
14645478
14645298
14646476
14648115
14652848
14656219
14656330
14657874
14658616
14660281
14661576
14661073
14660432
14659162
14658941
14659623
14660929
14662303
14660655
14660184
14658771
14655281
14646289
14644165
14638465
14636095
14635643
14636222
14636853
14636638
14637500
14639062
14639659
14640385
14641332
14642678
14643754
14642644
14643140
14642015
14642015
14640692
14641127
14641043
14639796
14638253
14637809
14637458
14636845
14636068
14636247
14634901
14633501
14633466
14632842
14633994
14634533
14634865
14635777
14637263
14638501
14638610
14638568
14639096
14638900
14638533
14638370
14637409
14636581
14636588
14636947
14637221
14637007
14638705
14640343
14641025
14641390
14641716
14642132
14642252
14642561
14642294
14642228
14642211
14642986
14643277
14644311
14645246
14645845
14647415
14647142
14647227
14647524
14647636
14645427
14645283
14646051
14646714
14645852
14644572
14645581
14644692
14644906
14645129
14644770
14645444
14645487
14645102
14646236
14646921
14645630
14642910
14643157
14643704
14644308
14643747
14644993
14644847
14643935
14643183
14641733
14642381
14643977
14643431
14643013
14642357
14641801
14641971
14641843
14642135
14641613
14641706
14643217
14644019
14644019
14642527
14642576
14643491
14643849
14641205
14639796
14641401
14640565
14644199
14649342
14647679
14641774
14637944
14642576
14640171
14634815
14628380
14628117
14629294
14632571
14635752
14636965
14638483
14636972
14637774
14638660
14634917
14631528
14632715
14636827
14637696
14635565
14634857
14639557
14641579
14646578
14646887
14647474
14646425
14646442
14645309
14646536
14649753
14651194
14653353
14653635
14653685
14655400
14658139
14656535
14657626
14659042
14662959
14663802
14665791
14670714
14672940
14675798
14675396
14675049
14674315
14672590
14670884
14670151
14669699
14667028
14666404
14664119
14664435
14664672
14663907
14664588
14663530
14663316
14663027
14663513
14661286
14660236
14659162
14659061
14660621
14661295
14661192
14661295
14661987
14662353
14661610
